285952
248320
260864
354560
431616
493312
522752
448256
293888
152064
41728
33280
74240
16723200
16541696
16409088
16377856
16438528
16429568
16390656
16434944
16537344
16608768
16680960
16695552
16559872
16484864
16494080
16421376
16250624
16061696
16027904
16018432
15965696
15881472
15836160
15852288
15864832
15843328
15913728
15936000
15858688
15878656
15991040
16021760
15907328
15711744
15507968
15330816
15171328
15232768
15459584
15564032
15581952
15557376
15621888
15720192
15767040
15828992
15828224
15776256
15774976
15751168
15726848
15715328
15788800
15949312
16115456
16183040
16184064
16174336
16226304
16294400
16299520
16385536
16475392
16508416
16454656
16402432
16449792
16451072
16355072
16268800
16287232
16390912
16506880
16572416
16627968
16707840
49408
167424
222464
236800
231168
136704
14080
16702976
16658688
16619008
16543744
16461824
16389120
16381696
16429312
16494080
16533504
16611584
16694272
16711168
16692736
16634368
16577792
16533760
16424192
16278016
16147968
16116992
16142592
16169984
16165632
16157440
16191232
16191488
16230912
16305664
16386048
16393728
16338944
16294912
16227840
16135424
16061184
15968512
15876352
15787520
15741696
15774464
15787776
15801344
15913728
16050688
16103168
16099840
16050944
15912448
15819264
15770368
15716608
15697408
15673600
15616256
15534336
15499520
15527936
15586816
15683328
15774464
15791616
15765504
15770624
15809536
15821824
15831040
15885312
15911936
16028672
16262144
16460544
16665344
129024
336640
532736
775168
1068032
1352960
1630720
1843200
1969152
1972736
1827584
1654016
1523968
1304320
943872
572416
241664
16723968
16413184
16028928
15647232
15378944
15178496
14980864
14866432
14875136
14917120
14914560
14877952
14861824
14862592
14836224
14816512
14908672
15017472
15064832
15122944
15198208
15272192
15395584
15460096
15453952
15460352
15461120
15374336
15300352
15251968
15159040
15073536
15046912
15063552
15083008
15096832
15065600
15059456
15114496
15157504
15191040
15234816
15290112
15336448
15263232
15155456
15073280
14998016
14972672
14993408
14945536
14908160
14921984
14939392
14980096
15047424
15108608
15147008
15158784
15130880
15102720
15072256
15086080
15111168
15083264
15021824
14941440
14884608
14924544
14990848
15039744
15085056
15147264
15212544
15234048
15241728
15290112
15326464
15286272
15221504
15149568
15042816
14970624
14935808
14911744
14916352
14919936
14956288
15027712
15088896
15095808
15092480
15123200
15160832
15172096
15164672
15153920
15162624
15174400
15135232
15053312
15007232
15010560
15036672
15088128
15142144
15199232
15286528
15365632
15414528
15395584
15335680
15275776
15223552
15171328
15130624
15097600
15098880
15077888
15097344
15127552
15144192
15223040
15313152
15345152
15359488
15389184
15432448
15464448
15525888
15588608
15548416
15463936
15391232
15268608
15186176
15204608
15258368
15303936
15339264
15319296
15251968
15383296
15552512
15537664
15443456
15479808
15535872
15563264
15543296
15458048
15382528
15321344
15267072
15242752
15240448
15270144
15266560
15268608
15306240
15377152
15416064
15433216
15473664
15441920
15331840
15299072
15309824
15262720
15142656
15005952
14947584
14969856
14990080
14990848
14962688
14960128
15043072
15162624
15162112
15019008
14893568
14874880
14839040
14799360
14754048
14616064
14443776
14392832
14459648
14530304
14546176
14534656
14552320
14640384
14726656
14747648
14697728
14591232
14476544
14402048
14368256
14327296
14257664
14210560
14178560
14173184
14225408
14281216
14332416
14414848
14482176
14507264
14489088
14426624
14405120
14425856
14429952
14356736
14237952
14118912
14063872
14005248
14006784
14092544
14175744
14319872
14414592
14243072
13989632
14030592
14271744
14523648
14649856
14410752
14036992
13823744
13786368
13806848
13826048
13892608
13963008
14016000
14053376
14098432
14195968
14307584
14403840
14392832
14302208
14119680
13946880
13841152
13737216
13705984
13760000
13790976
13815040
13894656
13981696
14059776
14108160
14105344
14124544
14164992
14139648
14094336
14105088
14063104
13983232
13919488
13868800
13812224
13756160
13832704
13885696
13842944
13847552
13941248
14009344
14038784
14074880
14030592
13950720
13922816
13965568
14032896
13995776
13923328
13780480
13637888
13652480
13776384
13906176
13973248
14056192
14088448
14061312
14000384
13955328
13948160
13922304
13866496
13810688
13811200
13812736
13759744
13682432
13589248
13576448
13690624
13877248
13965312
13982464
14040064
14071552
14012160
13933312
13900544
13854976
13769216
13701632
13652480
13649664
13670144
13649664
13691648
13795840
13841920
13845504
13853952
13832960
13841664
13903616
13940736
13936640
13904640
13863168
13825024
13783040
13718272
13669888
13647360
13630976
13680896
13758976
13807104
13783040
13768448
13790464
13810944
13808384
13769216
13705216
13634560
13666816
13744896
13802240
13692928
13572352
13563904
13569792
13623040
13703424
13790976
13857792
13859328
13803008
13750272
13713664
13717504
13700864
13630208
13596416
13597440
13583360
13573120
13534976
13539584
13609216
13690624
13712640
13698560
13734400
13741824
13643776
13562880
13566464
13539584
13548032
13558528
13495296
13461760
13472512
13451008
13455616
13524736
13623808
13707008
13746176
13769984
13792512
13821184
13818880
13798656
13717248
13523456
13332224
13234688
13213184
13194752
13191680
13236992
13380096
13595648
13782784
13915392
13977344
13949952
13796864
13597696
13422592
13316608
13309440
13305600
13275136
13247744
13293824
13364480
13433600
13495296
13602816
13698560
13706752
13653248
13630720
13667328
13673984
13588224
13526272
13455104
13354496
13301504
13365504
13419776
13375744
13377024
13473536
13570560
13609984
13668864
13753088
13769216
13723648
13686784
13673728
13671680
13547264
13412864
13408512
13456640
13492480
13467648
13477632
13498368
13432576
13317376
13380608
13520640
13573888
13570304
13530880
13462272
13426944
13430784
13380096
13234176
13129472
13076992
13047040
13039104
13134592
13314560
13398016
13384704
13427968
13522432
13486080
13388032
13340928
13338368
13316352
13227520
13104384
12984832
12937472
13047808
13204992
13377536
13532672
13554944
13476352
13481728
13507328
13399296
13208320
13081344
13021440
12987392
12973312
12961024
12956928
12928256
12910848
12973056
13145088
13262080
13394688
13449472
13319680
13302016
13403648
13449472
13409024
13311232
13125632
12934912
12869376
12882432
12914176
12946944
12984576
12998912
13001984
13058048
13198848
13410816
13618688
13764352
13793024
13819904
13953536
14123776
14280704
14438144
14610944
14765824
14984192
15198464
15412224
15628288
15814912
15993088
16143104
16179456
16056320
15803392
15495680
15179520
14817792
14435328
14077440
13684992
13298944
13026048
12823552
12660480
12487424
12371456
12432896
12551680
12652032
12765696
12797696
12756224
12783104
12832768
12943616
12981760
12877312
12804864
12894464
13047808
13057536
12880384
12802816
12887552
12902912
12980480
13121280
13176832
13213184
13117952
13004288
12929536
12873216
12810496
12767232
12782080
12861696
12865536
12932352
13029120
13099008
13148928
13118720
13058048
13012992
12937216
12885504
12838144
12787200
12760064
12812288
12895232
12944384
12906752
12834560
12885248
13009664
13174016
13284352
13321472
13279232
13190144
13149440
13080064
12948224
12867840
12914944
12966656
12941312
12916480
12932352
12969216
13050368
13128960
13200896
13170432
13123328
13162496
13252864
13266688
13157632
13073408
13042688
12988928
12850688
12737792
12747776
12865024
13034496
13090816
13094144
13176064
13239040
13286144
13362432
13392896
13343488
13236736
13136384
13031936
12917248
12899328
12891904
12828672
12879872
13031168
13041920
13048320
13175296
13436160
13578752
13441536
13312000
13350912
13433088
13392128
13288448
13268736
13302272
13250816
13215232
13247744
13261312
13263104
13250304
13243904
13300992
13346048
13429760
13582336
13675520
13597696
13421568
13315328
13199360
13051648
13088000
13245696
13342976
13365504
13412608
13470464
13449216
13428224
13568256
13746688
13780736
13631488
13465600
13399808
13314816
13199104
13059328
12978432
12998912
13105920
13224960
13319424
13462016
13572608
13584128
13639680
13757184
13798656
13670400
13485056
13464064
13636352
13718272
13532928
13271296
13017088
12739072
12539904
12534016
12689152
12906496
13138688
13281536
13330432
13239296
13201664
13249280
13119744
12814080
12478720
12372992
12419584
12382720
12275712
12273920
12373504
12417792
12412416
12479232
12594688
12719360
12829696
12755456
12645632
12656384
12482304
12135680
12020224
12219648
12425728
12480768
12482048
12463872
12413184
12376576
12418816
12514816
12612864
12634624
12558592
12435712
12351488
12253184
12200960
12206592
12183296
12046336
11886080
11947008
12039936
12027136
12003840
11956480
12018944
12182272
12332288
12492544
12658688
12842752
13016320
12994048
12703488
12519424
12563968
12503552
12229888
11864320
11725568
11883520
12034816
12096000
12133376
12142848
12125184
12114688
12209664
12241408
12180736
12148992
12198400
12415488
12590336
12608768
12633088
12515840
12242176
12294912
12782080
12967424
12739328
12199168
11708416
11413760
11098880
10998016
11380480
11712512
11775744
11753472
11686656
11665920
11676672
11622144
11570176
11589888
11727360
11806464
11821312
11964160
12189184
12221696
12109312
11917568
11617280
11351808
11377664
11461888
11424768
11467008
11542272
11612672
11625472
11604736
11684096
11912192
12129280
12297216
12408320
12404736
12243456
11994624
11764224
11557376
11265792
10965248
10910976
11131648
11352064
11416320
11394560
11399168
11367424
11278080
11192576
11125504
11082752
10973952
10900224
10912768
10952704
11006976
11070720
11127040
11192576
11205632
11088128
11011072
10987008
10872832
10768896
10715904
10581248
10381824
10213120
10142720
10048768
9961984
10000384
9999360
9916160
9910784
10035712
10350080
10607616
10673152
10605568
10519552
10489856
10445568
10268672
9917952
9607680
9415424
9445888
9563904
9528576
9467648
9403904
9242880
9190400
9213952
9313536
9487616
9576192
9687040
9764608
9841152
9978880
10085888
9853952
9405184
9092608
9002752
8952320
8877568
9000448
9177344
9184512
9178880
9241600
9408256
9583104
9733632
9802752
9922560
10037248
9947392
9775360
9707008
9713408
9868032
10080768
10082048
10014976
10158848
10401024
10431232
10295040
10089984
9788672
9566720
9652992
9826304
9996032
10348544
10777088
10927872
11017728
11175424
11116800
11010816
10937088
10912512
10867968
10752512
10633216
10621696
10601216
10664448
10765568
10850560
10881024
10856960
10783232
10655744
10542336
10570496
10653696
10741760
10808064
10835200
10854656
10890240
10977536
11064320
10982912
10785280
10612992
10539264
10506496
10580736
10767360
10850816
10793472
10827776
10927616
10910976
10823424
10962176
11214848
11238912
11283200
11353856
11470592
11521024
11369472
11105280
10859776
10812672
10950144
11250688
11429120
11399424
11354368
11416576
11622400
11675136
11507712
11420160
11469056
11552256
11609856
11673344
11766016
11896320
11972096
11995136
12042752
11960832
11744768
11619584
11543808
11472640
11492864
11528704
11486976
11315968
11158272
11083776
11115008
11185664
11293696
11402496
11421184
11517184
11639040
11704320
11688192
11646208
11671296
11670528
11559680
11463680
11490048
11496192
11724800
12058624
12250624
12336896
12264448
12108800
12204800
12646656
13232128
13620480
13781760
13945344
14206464
14438656
14376448
14472704
14811904
15029504
14961920
14558976
14077184
13620480
13226752
12881664
12577536
12357376
12223488
12043520
11701760
11340288
11114240
11077888
11088896
11192576
11379456
11528960
11722496
11934464
12116224
12199936
12162304
12115968
11909120
11515136
11218944
11170816
11285504
11264768
11222528
11339008
11447552
11508992
11578368
11666176
11805952
11886848
11854080
11811584
11845120
11906304
11929088
11899392
11840000
11940096
12136448
12276480
12283392
12267776
12206336
12163328
12186880
12038656
11795456
11731200
11796480
11792896
11831552
11968768
12029184
12059648
12030464
11933952
11951360
11942400
11766016
11562240
11633664
11821312
11826944
11952128
12367360
12649472
12724992
12723712
12557056
12286976
12189952
12221440
12266752
12261120
12152576
11983872
11990016
12096768
11897600
11513088
11528960
11790848
11750912
11522560
11577088
11864576
12027648
12120320
12146176
12145408
12304128
12457728
12370944
12392960
12574720
12702720
12760064
12622592
12562432
12581120
12578816
12590080
12492032
12434176
12455936
12521216
12604928
12663296
12657152
12578048
12538880
12484864
12474880
12627712
12725504
12771072
12945920
13069824
12933376
12657920
12416512
12259328
12366592
12425472
12301056
12185344
12091904
12020992
11974400
11959552
11986688
12035840
12194048
12360192
12534272
12825344
13028352
13033472
12828928
12486400
12060928
11642624
11369472
11197952
11125760
11133952
11133184
11195648
11368960
11330560
11063808
10944000
11062528
11052288
10925568
10941696
10981120
11021312
11065600
11030528
11044352
11144192
11397120
11648256
11679744
11754496
12096768
12631296
12806912
12678144
12623360
12682496
12708096
12617216
12490240
12375808
12174336
11954176
11907840
12074496
12327680
12576512
12733952
12599552
12677888
12715776
12229888
11475968
11053312
10806784
10878976
11163648
11245568
11316736
11449856
11527168
11571712
11661056
11630080
11552000
11620096
11737856
11697152
11639296
11672832
11675136
11533568
11350016
11261184
11267072
11267584
11219200
11155712
11067648
11019776
11034624
11146240
11227648
11245312
11330304
11452928
11493632
11481600
11473152
11443456
11332608
11244544
11194880
11154944
11121152
11029504
10969856
11012608
11061248
11143680
11309824
11492096
11575040
11539456
11360512
11331072
11403008
11330560
11250176
11384320
11532288
11559168
11507712
11481344
11505408
11472384
11468800
11462400
11409408
11518208
11643904
11633920
11586560
11524864
11536384
11576320
11621376
11582208
11351808
11183872
11205120
11301632
11404288
11580928
11763712
11863552
11951616
12089600
12123136
12023296
11811072
11463680
11146496
11092736
11106304
11047424
11133696
11276288
11254016
11213056
11330048
11487488
11532800
11531264
11703040
11838208
11792128
11563776
11362304
11388928
11495936
11461888
11322624
11173632
11134208
11183616
11180032
11136256
11168000
11215872
11287808
11449088
11651584
11750912
11659776
11616768
11561728
11354624
11297792
11362304
11366912
11333888
11260160
11243776
11319040
11353856
11293952
11303680
11399424
11500800
11541504
11548928
11545856
11489280
11384576
11340288
11333632
11293440
11292416
11356160
11504640
11656960
11703808
11747328
11857408
11856896
11842560
11786240
11498496
11175424
11108096
11094016
10938112
11017472
11384064
11649024
11518464
11327232
11193088
11117824
10985728
10909440
11037696
11283456
11382272
11334656
11326464
11431424
11488256
11494400
11484416
11406848
11342336
11292160
11274752
11291648
11376128
11513088
11628032
11706880
11792896
11782400
11699456
11667712
11638016
11511808
11310080
11054848
10898432
10943488
11035648
11049728
11004928
10998784
11064320
11218176
11429376
11579392
11515904
11446016
11483392
11392512
11175680
11070208
11093504
11141120
11197952
11249152
11267840
11292160
11304960
11346432
11414016
11397632
11363072
11442176
11530752
11433216
11352064
11343104
11359488
11259648
11053312
11041280
11147264
11144960
11174144
11293696
11425536
11549696
11660544
11563520
11395584
11435776
11573248
11564032
11213568
10775296
10632448
10667520
10534912
10510848
10630144
10774272
10841600
10855680
10975744
11162112
11275264
11274496
11184384
11161600
11202048
11196416
11211776
11246848
11254784
11333888
11424768
11364096
11375360
11441408
11435520
11294720
11009280
10799616
10874880
10946816
10990592
11079936
11083520
11068672
10917888
10606080
10504192
10585856
10670336
10746368
10868992
10908416
10890496
10984192
11119104
11151616
11080192
10983680
10820352
10731776
10799872
10868992
10800896
10671104
10653696
10696960
10778880
10776832
10727936
10766080
10877696
11027712
11102976
11058944
10945280
10786560
10841088
10985728
11041024
10943232
10966016
11125248
11193344
11222016
11246080
11274496
11239424
11117824
11112192
11359232
11632384
11720192
11720192
11723776
11832320
12035072
12168448
12312064
12505856
12672256
12862464
13150208
13248768
13169408
13288704
13505536
13587712
13517824
13305600
13038592
12798976
12528640
12262400
12036352
11662080
11225600
10914816
10676736
10445824
10351872
10283776
10126848
10071296
10258688
10427392
10530304
10562560
10480640
10441728
10420736
10443520
10546688
10684416
10785536
10921728
11145216
11251968
11178752
11139840
11160064
11170048
11124736
11074816
11142656
11426560
11901952
12233472
12066048
11766528
11743488
11723008
11361792
10864640
10697728
10841344
10925824
10876160
10871296
10942976
11001088
10917120
10735616
10562560
10564608
10794240
10990336
11068416
11236352
11412480
11446784
11439104
11314432
11148288
11150080
11221504
11084032
10922240
10791936
10645504
10635776
10745344
10782208
10748672
10710528
10662144
10735872
10799616
10871040
11070976
11220224
11221504
11226880
11269376
11300608
11332608
11327744
11284480
11255552
11291648
11258880
11188736
11172608
11175936
11226112
11353344
11384064
11420672
11497472
11595776
11732736
11884288
12023552
11933440
11683072
11587072
11717888
11859200
11897856
11952640
11971584
12018688
12220672
12367360
12247552
12061952
11997440
12112128
12271360
12357376
12408832
12332288
12195072
12052224
11834624
11688448
11675648
11787008
11815424
11721472
11599616
11476992
11645440
11972096
12084224
12147456
12295424
12422656
12464384
12391936
12305920
12172544
12084224
12164096
12215296
12198144
12275712
12521472
12868864
13070080
13071872
13088256
13179136
13262592
13221120
12900096
12584704
12413952
12353536
12324096
12272128
12239104
12249600
12403968
12548864
12590080
12718080
13013760
13178624
13101312
13043968
13102592
13108736
13059072
12963072
12824320
12782848
12832512
12851200
12693248
12519680
12559872
12673536
12724736
12761600
12887552
12998144
13040640
13137408
13275648
13346304
13377024
13378304
13283328
13149184
13115904
13169664
13173760
13246464
13347072
13406976
13379328
13301504
13351936
13401856
13428224
13475584
13613568
13795584
13913856
14004480
13933568
13921024
14154240
14360064
14299904
14154496
14151168
14182656
14184704
14293504
14313984
14267136
14278912
14306048
14324992
14281728
14237440
14214400
14142976
14069248
13992192
13935104
13893888
13947648
14116096
14364160
14629376
14780160
14843904
14932224
14990592
15077120
15139584
15033344
14911744
14809600
14559488
14164224
13878784
13753088
13774592
13890304
13888512
13830912
13940480
14161920
14316544
14437120
14561280
14540032
14546176
14648064
14627072
14483200
14388992
14440448
14562304
14613504
14676224
14819584
14898944
14859264
14806528
14672896
14465024
14242048
14001664
13942784
14095104
14209536
14338048
14603008
14788352
14864384
15196416
15473920
15314688
14878720
14565888
14587904
14701568
14628096
14565888
14707200
14875136
14958592
14776064
14621184
14664448
14778112
15026688
15342848
15511296
15441920
15216384
14812672
14598656
14638848
14435328
14235392
14281728
14298368
14146560
14106624
14216704
14286592
14308864
14397184
14578176
14762496
14807296
14756096
14670848
14666496
14684416
14562816
14441728
14428416
14381824
14207744
14002688
14021888
14215680
14339584
14305024
14241280
14321920
14434304
14464256
14422528
14412544
14438144
14492416
14587904
14669312
14642432
14182144
13733632
13691136
13883136
14074112
14114560
14097152
14103808
14148096
14176256
14081280
13931776
13826816
13817600
13915648
13855232
13738496
13712128
13712384
13774592
13876992
13873920
13844736
13893376
13991936
14046208
14094592
14053632
13922048
13821440
13737984
13607680
13420032
13315072
13325824
13298944
13293824
13414144
13501952
13578752
13666304
13703680
13746176
13729024
13682688
13665536
13740288
13835776
13875968
13925632
14023680
14060544
14029056
13889024
13591296
13362176
13393920
13429504
13373696
13080320
12787456
12737792
12828672
12913664
12931072
12959488
12988160
12953856
12835840
12785664
12939776
13102592
13175040
13344000
13412096
13386752
13388288
13419008
13502208
13521408
13401600
13217536
13127936
13099520
13059328
13057024
13039616
12991488
12973056
13043200
13116672
13134080
13146368
13162752
13152512
13108224
13050880
13034496
13038592
12945664
12828672
12802048
12848128
12889344
12989184
13072896
13084928
13090560
13126400
13222400
13330176
13366528
13341440
13216000
13114112
13054464
13022464
12988672
12916480
12857088
12911872
13006848
13065728
13144064
13200384
13151488
13159424
13288192
13381888
13434112
13393408
13335552
13310464
13158656
13071872
13041408
12977408
12972288
12999936
13030400
13041664
13061888
13101568
13109248
13156352
13229568
13213440
13157376
13092864
13075200
13048064
12958720
12911360
12933632
12952064
12964096
13032704
13086720
13139712
13127168
13063424
13132032
13292800
13490432
13596672
13676288
13809664
13944320
14047232
14184960
14330112
14524416
14755840
14998528
15289856
15604992
15873280
16134912
16349184
16452352
16428032
16251648
16046080
15726080
15307264
15025664
14756608
14427904
14045440
13618432
13258496
12968704
12752128
12612096
12549888
12556288
12595712
12630528
12684800
12733184
12720896
12744448
12815616
12879872
12805376
12715776
12760064
12907008
13021696
13107456
13163520
13207808
13229312
13261568
13261568
13245184
13218816
13173504
13142784
13103872
13059584
12991488
12906752
12883968
12912640
12952320
12999424
13046528
13091328
13160448
13276928
13379328
13352704
13270272
13238016
13155840
13079040
13056512
13011712
12932608
12931328
12964096
12967936
12971776
13012992
13112576
13214208
13261568
13258240
13225728
13167360
13132032
13133824
13117440
13062144
13056256
13075712
13077504
13098496
13114624
13191680
13295360
13312512
13310208
13347328
13371136
13435392
13450240
13389568
13304064
13159168
13020160
12985088
12981248
12940288
12948992
13015040
13064448
13106688
13197056
13353728
13472256
13480960
13410304
13374976
13377280
13344000
13313024
13270528
13214208
13138432
13127680
13190144
13265408
13291264
13324544
13388032
13472512
13572608
13615104
13563136
13525760
13538048
13517312
13453056
13346304
13202944
13167104
13197824
13276416
13376768
13442560
13512704
13601536
13667328
13676032
13714688
13734144
13685760
13653504
13652992
13635584
13598976
13593600
13583104
13551104
13582848
13614336
13629696
13718784
13814784
13853952
13837568
13830656
13868288
13869568
13833216
13771264
13635584
13517056
13504256
13486336
13428224
13490176
13607936
13629696
13632000
13689856
13751808
13785856
13816320
13823744
13777152
13688064
13553920
13440256
13420288
13361152
13351168
13312512
13258752
13285888
13271296
13253376
13339136
13400832
13433600
13446144
13406976
13352192
13292032
13244672
13178368
13016576
12895232
12885760
12868352
12875008
12924416
12933120
12890624
12937472
13010688
13031168
13063424
13030656
12964352
12945152
12896000
12818176
12726784
12596224
12493824
12480512
12517888
12559360
12613632
12649984
12695040
12750080
12756992
12760832
12765696
12736768
12657408
12631552
12654336
12606976
12495616
12409088
12397824
12485120
12553984
12573184
12597248
12620800
12662272
12728832
12779520
12796416
12803584
12763136
12655872
12543232
12439296
12331520
12282624
12299520
12334080
12378624
12460032
12518912
12576512
12641536
12701696
12769536
12760064
12731136
12701184
12600576
12519680
12424192
12337664
12332032
12334848
12338432
12344320
12309504
12316416
12380416
12496384
12606464
12668928
12645120
12606976
12591104
12536576
12435200
12317184
12240128
12222720
12257280
12339968
12346880
12348672
12422400
12502016
12613888
12608000
12583424
12593408
12572672
12560384
12535040
12478208
12417536
12385280
12303360
12195328
12205568
12256256
12297984
12385024
12483840
12609792
12671488
12625920
12577280
12506624
12417024
12372736
12365824
12329216
12270336
12208128
12165376
12166656
12222464
12290560
12337664
12356096
12374784
12418816
12459264
12513536
12565248
12588544
12537344
12409088
12248576
12151296
12116224
12123136
12113152
12171008
12254976
12273920
12286208
12309504
12369920
12430080
12448256
12424704
12384256
12349696
12302848
12272640
12249088
12192000
12133376
12134912
12173824
12261632
12326400
12371968
12404736
12422656
12445952
12524800
12543232
12500480
12454144
12351744
12250112
12152320
12056064
12032256
12072704
12111872
12142080
12182272
12250624
12362496
12456704
12483328
12458496
12400896
12325120
12287744
12293376
12276224
12194048
12072960
12054784
12088832
12128768
12156672
12178944
12233984
12294912
12407808
12460544
12455168
12454144
12429824
12330496
12232960
12224512
12234496
12219648
12206848
12198400
12241920
12336384
12348672
12299776
12296192
12440576
12518144
12528896
12522496
12461056
12384256
12299008
12240896
12204800
12165120
12142336
12141568
12115968
12092416
12131328
12185088
12231680
12288512
12359936
12392192
12341248
12268800
12275968
12253184
12142336
12094208
12039168
11936000
11893504
11974912
12070656
12147200
12182528
12238848
12329216
12348416
12326144
12282880
12253440
12186368
12137472
12120064
12034816
11939584
11905536
11889664
11928064
11977216
12019456
12080384
12136960
12194304
12260864
12301824
12312576
12286208
12213504
12162048
12156416
12101888
11994112
11951360
11962624
11968768
11987712
12025856
12055808
12105472
12192512
12234496
12247296
12300800
12296704
12193536
12063488
11976704
11970560
11969536
11884032
11863040
11903488
11982848
12093184
12223744
12318208
12399872
12504320
12623616
12731136
12873472
12998144
13090304
13274368
13503488
13667584
13837312
14078720
14327040
14536960
14802432
15076864
15287040
15451136
15513600
15426304
15267584
14984704
14585856
14272768
13980928
13636352
13207296
12706304
12291584
11981056
11780352
11636992
11537408
11532544
11647488
11807488
11897344
11932928
11992064
12067072
12113408
12099328
12047104
12019712
12035328
12082176
12146432
12218112
12264192
12315648
12393984
12482304
12549376
12556288
12472576
12371712
12297472
12233472
12207616
12168960
12133632
12157184
12097792
12023296
12043776
12130816
12207360
12273408
12332800
12359680
12385280
12392960
12395008
12400896
12389888
12316672
12231424
12160256
12145408
12173312
12196352
12252928
12335616
12421888
12477184
12529664
12573184
12598016
12589056
12558080
12532480
12491264
12430592
12348416
12252416
12186624
12180736
12194816
12227072
12274176
12335104
12399872
12465920
12567552
12638976
12644352
12608512
12548096
12486144
12424448
12412416
12391424
12368896
12359424
12366592
12385536
12410368
12482048
12605952
12655104
12696576
12778240
12782080
12801536
12794112
12701184
12601600
12545024
12542464
12572416
12541952
12475904
12467456
12530688
12613632
12711936
12845056
12929024
12951808
12961792
12951040
12922368
12876032
12808448
12763136
12734464
12678656
12654080
12655872
12708352
12803328
12859136
12912128
12984320
13067264
13125120
13175040
13196288
13182208
13117440
13019392
12968192
12926208
12896000
12892160
12907264
12984320
13059072
13053440
13060096
13119488
13232896
13286144
13260032
13307392
13366016
13323008
13233920
13124864
13010432
12947200
12932352
12934656
12951552
12962048
12965632
13014528
13072384
13131776
13222400
13266432
13246464
13210368
13144576
13049344
12935936
12806912
12708096
12670976
12642560
12631552
12667136
12690176
12707328
12753408
12788992
12797696
12786944
12742144
12657152
12577536
12522752
12471040
12384768
12266496
12183296
12138752
12138496
12177408
12182528
12188672
12250880
12307200
12388608
12417792
12386816
12344576
12293120
12218880
12150784
12122624
12059392
11998464
11948800
11926016
11949312
12004864
12046592
12104192
12192256
12243200
12225536
12162816
12129792
12126464
12109824
12062720
11990016
11909632
11836160
11758080
11747840
11808768
11866624
11905536
11934976
12002304
12088576
12123392
12133120
12131328
12052480
11972864
11966976
11893248
11798016
11808512
11846144
11812608
11801344
11854592
11931136
11967744
11984384
12022016
12063232
12051968
12038656
12035328
11971072
11890432
11808512
11700224
11637760
11639808
11647744
11683584
11795968
11885824
11936000
11980544
12036352
12096000
12093696
12014080
11975424
11940608
11877632
11835904
11813888
11747072
11715840
11721984
11783424
11870208
11939072
11980032
12028928
12068096
12112640
12172288
12167936
12122880
12079104
11983360
11911936
11840768
11749632
11696640
11712512
11769344
11803648
11809536
11809792
11861504
11973632
12079872
12119296
12130816
12073216
11986688
11885824
11818240
11778048
11779328
11752192
11715840
11744256
11842816
11917568
11982336
12017408
12066816
12100352
12108544
12087296
12083200
12019456
11895040
11782912
11769088
11745024
11715328
11694592
11673088
11664640
11732480
11842048
11930880
11981312
12027136
12069120
12071936
12026368
11940096
11855104
11810048
11799296
11768576
11750656
11742976
11750144
11803904
11854080
11867904
11873280
11921664
11980032
11998720
12004096
12009472
11990272
11947520
11902464
11851264
11801856
11768576
11713536
11676416
11671040
11717632
11791872
11864576
11962624
12099840
12119296
12068352
12044288
11973376
11890944
11835904
11739648
11685120
11700736
11725568
11761408
11827712
11868416
11923200
11972608
12021760
12062976
12116224
12174080
12170496
12113920
12007168
11980800
11943424
11858176
11843072
11878656
11927808
11923712
11924736
11950080
11979008
12017664
12019968
12025600
12052480
12042752
11968512
11898112
11856896
11792384
11729408
11678720
11655680
11637504
11654656
11724288
11799296
11867136
11909632
11931648
11949056
11904512
11821824
11763200
11714048
11708928
11710720
11685632
11709952
11720192
11691008
11696896
11693568
11706368
11758080
11795200
11808256
11836160
11872000
11867648
11817984
11732736
11661568
11616768
11603968
11610880
11628032
11594496
11587584
11596800
11634176
11697920
11786240
11866112
11905024
11888384
11846400
11852288
11840768
11778304
11688448
11634176
11606784
11580928
11552256
11590400
11648768
11692544
11697664
11732736
11808256
11852800
11846144
11795968
11761920
11747328
11741952
11703552
11679744
11708416
11813888
11970816
12121856
12291584
12524032
12849920
13188864
13398784
13596672
13831168
14039552
14213120
14373120
14521600
14660608
14751488
14810624
14843392
14785536
14688000
14572032
14385408
14113280
13782016
13524480
13251840
12816128
12383488
12044288
11729152
11423488
11189248
11079680
11083776
11192576
11296512
11357952
11425280
11538944
11680768
11792896
11890176
11972608
12002816
12011008
12017664
11988736
11907072
11807744
11730944
11740416
11776256
11785728
11766784
11748352
11817472
11930880
12012544
12059392
12123136
12139008
12115968
12066304
11984896
11910400
11861760
11812352
11791104
11803136
11783424
11790080
11840768
11886848
11951616
12013824
12085504
12103680
12079872
12037632
11995904
11965184
11925248
11858176
11796992
11770624
11769856
11789056
11794688
11800576
11905536
12027136
12115456
12165888
12194560
12214016
12215296
12187648
12156928
12097792
12006400
11954176
11939328
11951872
11974400
11996928
12034560
12097792
12172544
12244736
12315392
12360192
12369920
12392448
12413440
12340224
12239360
12185344
12112640
12057600
12033536
12028160
12101120
12194048
12260096
12286464
12357888
12434688
12481792
12497664
12499712
12488960
12448256
12390144
12338688
12273152
12235520
12268288
12310528
12346368
12390144
12421888
12479488
12540928
12615936
12709632
12778752
12769280
12691456
12650752
12654080
12625664
12539648
12445952
12403456
12458240
12534016
12581632
12606464
12679168
12762368
12831488
12908032
12939776
12937216
12947968
12928000
12876032
12822016
12764416
12673536
12591872
12592640
12628224
12653568
12683264
12755968
12789504
12832256
12874752
12858368
12791296
12754944
12772352
12774400
12737792
12709632
12653568
12556800
12527104
12530432
12535808
12541184
12573184
12590336
12609280
12674560
12711424
12672000
12589312
12488704
12373504
12290560
12234752
12163584
12108288
12110592
12134400
12171008
12198656
12218112
12226048
12249344
12270848
12261888
12237824
12210432
12163584
12085504
11975680
11889664
11840256
11798272
11777024
11792896
11840000
11877888
11887104
11889920
11928320
12003328
12073216
12040192
11930880
11863296
11790848
11727616
11674112
11653120
11612416
11540224
11529216
11581952
11660800
11747072
11778048
11819520
11869440
11906048
11898368
11879168
11836160
11758592
11677184
11559424
11491840
11488256
11502592
11523840
11558656
11586048
11636736
11698176
11759872
11861248
11975936
11999232
11923712
11862528
11799040
11718400
11670272
11613440
11546624
11536384
11579904
11625728
11638528
11666432
11730688
11776000
11814144
11832320
11854592
11828992
11789312
11785984
11782656
11750912
11686400
11600128
11546624
11548416
11596032
11664896
11710464
11747072
11800576
11869184
11911168
11940352
11904000
11819520
11717888
11667456
11628800
11584256
11551232
11518720
11518720
11556096
11606016
11674368
11731968
11761664
11831296
11910912
11958528
11951104
11893248
11811840
11774208
11740160
11680512
11607808
11549696
11520768
11583744
11668480
11708160
11730176
11772672
11862784
11934976
11944960
11886848
11802624
11738624
11699712
11673600
11657728
11660544
11678208
11692288
11739904
11755264
11761408
11778048
11813376
11844864
11894784
11961088
11988736
11934208
11837184
11749376
11648256
11574528
11532032
11504128
11454976
11510016
11659264
11748608
11769344
11819008
11867904
11915520
11973632
11966720
11908864
11857408
11795712
11685632
11639552
11626240
11607296
11585792
11568384
11594496
11674624
11755520
11811072
11859968
11906304
11915264
11905792
11874048
11830528
11852288
11801344
11692032
11657472
11593472
11558400
11648768
11727872
11733248
11765760
11901952
12017408
12011008
11997696
11965952
11925248
11873024
11787520
11703552
11685888
11616512
11573504
11624192
11674368
11652352
11711488
11813376
11869696
11936256
12028672
12065024
12079872
12062208
12043008
12002816
11937792
11855872
11771136
11744512
11776000
11803136
11821824
11886592
11945984
11956992
11949568
11962880
12049920
12102912
12046848
11992832
11955456
11871744
11793920
11741440
11703552
11672576
11660288
11686144
11714816
11740416
11782400
11886336
11986432
12035072
12019712
11941632
11833344
11793408
11737088
11672064
11613696
11580416
11579648
11596800
11594496
11639296
11721216
11797760
11858176
11892736
11916544
11914752
11872512
11780864
11680256
11614208
11549696
11491584
11452928
11473408
11545600
11604480
11648256
11678464
11737088
11818240
11880704
11901440
11917312
11927808
11868928
11792640
11698176
11604224
11563520
11543808
11475968
11432960
11480832
11600896
11698944
11734528
11769088
11805440
11837440
11878912
11890688
11827712
11725312
11620096
11541760
11496704
11464448
11459328
11508736
11562752
11598592
11641856
11772160
11955200
12157184
12322048
12459520
12610816
12759552
12955392
13129216
13248512
13350912
13544192
13826816
14093824
14318592
14481152
14650368
14839040
14903808
14861824
14785280
14662400
14391808
14063104
13773824
13454592
13061632
12562176
12090880
11729664
11462656
11278592
11167232
11159552
11237120
11319040
11439616
11541760
11578112
11612160
11657472
11682560
11687168
11688448
11668480
11660032
11692800
11706368
11732480
11836928
11912704
11929088
11954176
12031488
12090368
12080896
12030464
11974144
11908864
11848192
11828736
11781888
11735808
11709184
11700992
11721472
11783936
11873024
11903488
11913472
12003840
12096768
12142080
12134912
12057344
11965696
11894528
11842560
11814656
11767040
11731200
11732480
11791104
11879936
11966208
12047616
12112128
12165888
12200960
12200192
12206080
12178176
12086528
12009216
11985408
11980032
11943680
11937280
11942144
11980800
12000256
12050432
12132096
12202752
12291840
12337408
12326656
12308224
12284672
12252160
12236288
12217088
12158720
12088832
12075264
12091904
12094464
12144640
12200960
12248064
12321024
12405760
12428544
12461056
12492288
12453888
12418816
12345088
12254208
12215296
12174848
12165632
12210432
12243968
12329472
12462848
12504064
12527360
12579584
12636416
12659200
12661504
12619264
12569344
12505600
12450304
12423680
12392704
12393216
12410880
12477184
12593664
12656128
12721152
12760832
12793088
12837632
12881664
12887296
12875520
12865024
12835584
12748032
12625408
12575232
12591360
12625920
12674304
12737792
12771072
12786432
12800768
12868864
12929280
12932352
12956160
12990976
12941824
12882944
12826112
12740864
12647936
12610048
12610560
12638976
12689152
12716032
12694784
12739328
12850688
12945152
12967936
12910592
12842240
12781568
12726784
12679936
12618752
12457728
12300288
12245248
12184064
12188672
12295168
12359424
12351488
12377344
12415488
12432896
12423424
12374528
12325888
12279552
12207104
12075264
11971840
11929344
11942656
11999744
12025856
12050944
12123904
12140032
12125440
12081408
12072192
12099328
12076288
12047104
12003840
11929600
11833088
11727104
11698432
11720192
11732736
11789568
11813120
11801088
11837696
11930368
11994368
12007424
12025600
12015872
11988224
11934464
11874304
11784960
11684608
11641856
11631360
11630848
11664640
11773440
11833088
11836672
11904512
11953152
11992064
12012288
11987200
11968000
11894016
11766016
11684608
11662336
11595776
11545088
11557120
11612928
11672576
11728640
11805696
11833088
11869696
11912192
11936768
11960576
12012800
11987712
11907840
11805696
11705600
11693056
11696640
11675136
11667456
11647232
11627776
11673088
11753728
11823616
11830272
11796992
11776768
11787520
11785984
11810560
11849472
11808256
11752192
11709696
11701760
11748352
11760640
11773952
11801344
11841536
11880192
11892736
11898624
11947520
11965184
11912960
11847424
11800064
11751680
11682816
11659264
11692288
11735040
11746048
11753472
11808768
11861504
11960064
12053248
12083968
12111360
12092672
12030976
11966976
11878656
11796992
11738624
11739136
11749376
11781632
11869184
11938304
11974400
11961344
11975680
12007168
11987968
11959808
11923456
11898624
11866624
11814656
11752448
11694336
11688192
11708928
11746048
11764992
11788544
11854336
11928064
12004864
12058880
12074752
12094720
12091904
11991296
11872768
11818496
11793408
11745280
11718656
11710976
11731968
11770112
11811584
11855872
11908096
11944704
12004608
12023808
12027904
11988480
11970816
11961856
11880448
11751936
11705344
11727104
11730944
11774464
11816960
11815936
11872000
11925760
12003840
12041984
12037376
12047104
12045312
11959040
11847680
11800064
11730944
11663360
11640320
11666944
11708672
11747072
11790080
11863808
11961088
12058368
12139520
12158720
12094720
12036864
12042496
11963392
11809280
11737856
11683328
11654656
11678720
11733248
11755520
11761408
11854080
11944704
12011776
12080128
12163584
12197632
12189440
12184320
12145920
12044544
11927552
11843072
11822336
11851520
11864320
11865856
11907072
11975168
12033536
12105216
12170496
12184832
12188160
12174336
12121088
12050176
11965696
11890688
11839232
11834368
11796736
11770624
11813120
11857920
11852032
11869952
11910400
11972608
11998976
12022016
11980800
11937024
11904000
11830784
11751424
11636224
11627776
11654144
11650560
11645696
11677440
11737856
11817728
11853056
11901184
11945472
11965696
11931904
11918336
11885568
11800320
11734016
11672320
11661568
11653120
11669248
11720448
11719424
11772416
11873024
11944448
11978752
11991552
11966208
11992832
12024064
11974912
11888640
11818752
11763712
11696384
11678464
11711744
11714816
11718656
11736320
11816704
11904000
11997952
12021504
12016896
12022528
11976960
11868416
11744512
11692544
11688192
11666176
11649280
11660800
11698944
11749120
11809280
11927040
12081408
12230400
12409088
12576000
12721664
12890112
13017856
13159168
13332480
13498112
13630720
13795840
14016512
14252800
14534656
14795264
15010816
15182592
15251968
15205120
15096832
14891264
14556672
14181376
13789184
13396224
12968448
12508672
12143104
11851776
11633664
11474176
11360768
11357696
11478784
11637248
11745280
11792640
11824896
11858688
11840256
11793408
11747328
11761920
11799808
11851776
11874816
11908608
11926016
11972096
12049408
12142848
12167936
12137728
12147456
12141312
12133632
12102144
12051200
12007936
11925760
11855616
11812864
11787008
11840000
11938304
12031232
12116224
12196096
12214528
12212224
12231680
12240128
12207872
12157440
12133632
12095232
12031744
11970304
11929600
11941120
11998720
12032256
12049408
12094464
12193280
12273408
12332544
12374016
12348160
12318720
12338432
12289536
12176384
12085760
12046592
12053248
12080896
12144384
12238848
12267008
12273920
12348928
12384512
12416768
12471808
12480000
12462848
12422912
12352512
12290048
12240128
12197120
12165376
12202496
12277504
12328960
12350464
12347136
12390144
12511488
12612608
12630272
12612352
12624128
12607488
12554752
12549888
12521984
12405248
12374784
12384768
12437504
12468992
12508416
12585984
12670208
12736256
12789760
12834304
12862208
12883968
12875520
12788992
12712448
12640768
12584704
12601344
12610560
12634112
12719360
12813568
12873728
12931840
12992768
13052160
13066496
13039104
13015552
12982272
12907008
12822016
12786688
12752128
12740864
12758784
12770816
12802816
12871424
12939008
12987904
13062656
13150464
13228288
13268480
13278720
13238528
13154304
13044480
12988416
12920064
12861952
12861696
12900608
12984320
13003520
13021184
13139968
13227520
13226240
13237248
13208320
13173504
13137152
13057280
12933632
12816896
12744704
12721664
12703744
12676864
12650496
12671232
12736512
12770560
12804352
12825088
12834816
12809472
12768256
12745728
12685824
12544512
12389888
12266752
12213504
12231424
12242432
12244992
12276480
12303360
12321792
12383744
12478976
12544768
12539904
12484864
12429824
12389376
12269568
12123392
12040704
11980288
11962368
11985920
12033536
12077824
12099840
12109312
12159488
12247808
12302848
12369152
12384768
12315904
12291584
12243456
12163328
12088576
12059904
12018688
12013568
12039168
12076544
12135424
12208896
12230656
12252160
12292608
12285440
12234496
12141568
12070400
12024320
11988992
11958272
11928064
11915264
11902976
11920640
11947776
11977472
11988736
12026112
12127488
12233216
12289536
12246016
12200192
12166656
12081152
12005632
11953408
11921664
11919360
11934464
11981312
12046080
12107008
12124672
12147712
12229120
12282112
12305664
12314368
12274688
12175104
12074752
12018944
11960576
11927040
11939584
11968256
12004864
12018688
12049920
12093440
12161024
12220160
12313088
12389632
12353792
12259584
12205568
12158208
12117248
12037376
11977216
11970816
11971584
12005120
12043520
12122368
12176896
12219392
12274944
12305664
12331776
12332800
12303872
12235008
12187136
12147968
12058624
11989760
11972352
11966976
11995904
12037632
12090112
12166656
12239616
12311040
12341760
12340480
12364288
12353280
12315136
12223744
12117760
12033536
11996672
12014592
12045568
12025344
12001536
12049920
12114688
12170496
12275456
12370176
12407552
12404224
12395264
12339456
12229888
12137216
12079616
12018688
11985664
11987200
11976448
12027136
12106752
12190720
12268032
12305408
12297472
12295424
12288512
12256512
12215808
12145152
12070656
12007936
11999744
12007680
12015360
11988224
11983616
12034048
12107008
12229376
12335616
12402944
12390400
12352000
12335616
12312320
12273664
12192000
12054784
11940864
11911936
11948032
11960832
11962368
12027136
12088576
12182528
12258560
12318976
12393984
12400384
12357120
12270592
12178432
12099072
12044544
12016128
11994112
11951616
11951616
12014592
12093184
12123904
12154112
12222720
12297472
12325632
12311808
12272896
12242688
12215552
12177152
12118016
12052224
12001280
11979264
11980544
12055552
12133120
12160768
12174848
12241152
12329728
12421632
12464384
12454912
12390912
12325888
12234752
12148480
12126208
12169728
12210944
12191232
12175104
12221696
12294656
12342784
12369920
12396032
12419584
12453376
12481280
12432384
12363264
12309248
12236544
12147200
12082432
12090880
12114432
12154368
12153344
12167680
12222720
12275968
12360704
12406272
12394752
12362240
12314368
12236544
12152832
12096512
12054272
11994112
11940352
11945984
11978496
12030208
12124928
12193536
12244736
12326656
12349696
12322816
12286208
12269824
12257024
12196352
12129024
12053248
12000000
11972864
11962880
11993600
12065792
12119040
12143872
12222464
12325632
12370688
12365312
12332544
12299264
12247040
12229120
12188416
12118528
12012288
11931392
11909632
11951360
12016640
12078336
12113664
12188416
12278784
12318208
12338944
12392448
12403968
12341504
12238848
12168704
12090880
11991296
11912960
11897088
11943936
12017664
12120832
12281088
12458496
12646144
12825088
12988416
13115392
13240832
13421056
13598464
13757952
13926144
14085120
14315776
14561536
14817792
15089152
15319552
15511808
15607552
15581184
15464704
15315712
15081216
14751488
14387712
14003456
13559552
13114368
12691968
12342272
12097792
11926272
11819520
11782912
11848192
11979776
12104192
12199168
12234752
12230144
12257792
12251904
12260352
12329728
12359424
12323584
12324864
12330752
12349184
12365312
12419328
12461568
12474112
12504064
12533760
12562688
12530944
12477696
12475136
12416512
12350720
12292608
12240384
12198144
12168960
12171520
12228608
12338176
12435968
12490240
12555776
12609536
12593408
12571904
12600832
12543488
12435968
12360960
12302592
12276224
12278528
12274432
12294656
12332288
12356864
12412672
12456448
12545792
12603648
12625920
12618240
12612096
12626432
12552192
12440064
12354560
12308736
12316160
12319488
12368896
12462848
12529152
12524544
12579328
12684032
12746240
12750848
12747264
12715776
12656640
12589568
12561152
12543232
12460800
12418048
12424704
12463616
12540672
12605952
12675072
12747520
12843520
12908032
12932352
12922624
12873472
12808448
12750336
12718848
12692480
12708864
12667136
12603904
12603904
12639488
12707072
12758016
12854528
12946432
12989184
13052416
13094400
13108224
13099776
13076480
12995840
12906240
12846336
12848896
12864512
12929024
13015296
13093376
13147904
13138432
13143040
13218560
13289216
13349888
13298688
13243648
13250304
13267968
13213696
13118976
13110784
13122560
13084160
13125632
13211648
13282304
13369856
13461504
13553920
13629440
13646592
13554944
13484032
13468416
13382144
13267200
13214720
13197824
13182464
13178880
13171712
13208576
13250560
13288960
13371648
13477888
13522688
13509632
13427968
13349632
13345280
13343488
13254400
13095680
12966656
12896512
12879616
12919808
12950784
12999168
13026816
13056256
13090304
13110784
13101312
13079296
13008896
12942336
12862208
12728064
12599552
12522752
12516864
12528128
12546304
12590592
12653312
12708864
12769792
12795648
12755456
12736000
12726784
12745216
12741888
12664320
12581120
12427008
12315648
12314112
12327936
12360960
12393984
12410880
12443136
12523776
12586496
12627200
12631808
12598528
12527104
12453632
12389632
12286208
12209920
12192768
12224256
12259072
12309504
12346368
12396544
12444928
12490240
12543488
12546560
12568064
12671488
12655360
12532736
12410880
12330752
12276480
12211200
12167680
12217088
12310784
12308480
12321024
12419072
12496896
12533504
12551936
12557824
12506112
12473600
12455936
12422656
12383232
12344064
12325632
12307712
12278784
12281088
12306688
12359424
12414464
12439040
12482816
12529408
12525056
12511488
12516864
12489728
12413440
12348672
12361728
12355840
12338944
12343552
12314624
12311040
12316672
12333568
12400128
12480256
12556544
12614400
12645376
12644608
12583680
12509184
12454400
12386560
12296960
12292608
12307200
12353280
12417536
12451072
12480512
12513536
12563200
12628992
12657920
12639232
12668416
12652288
12505344
12364800
12367872
12367360
12322304
12290560
12335104
12414720
12475392
12481792
12524288
12611840
12666624
12668160
12607488
12542720
12504064
12451328
12390912
12341248
12297216
12276736
12297728
12318976
12346112
12423168
12472064
12496640
12562944
12621824
12639744
12648704
12660992
12607232
12576768
12519424
12432128
12366848
12329728
12298496
12297984
12357888
12427520
12513536
12589568
12668672
12728576
12749312
12742656
12711680
12633600
12531968
12450048
12390912
12340992
12317696
12319744
12351232
12387328
12432640
12489216
12539392
12619520
12700416
12735488
12708864
12662272
12598528
12534272
12474624
12424448
12380928
12336640
12303872
12324864
12374784
12411904
12458752
12524544
12562688
12574976
12583168
12599552
12638208
12643584
12560384
12449536
12390912
12337920
12294144
12306176
12295424
12303104
12365312
12434432
12479232
12534784
12614912
12668928
12690432
12694272
12640768
12569856
12538624
12472832
12357632
12307968
12320512
12314624
12328448
12417536
12502784
12542720
12601344
12662272
12689408
12700928
12707328
12660736
12582912
12575488
12570880
12512512
12471296
12454656
12426240
12472320
12585472
12649472
12695808
12775424
12830464
12860672
12844544
12793856
12789760
12761088
12683264
12593152
12536832
12505088
12496896
12533504
12602880
12635648
12659456
12723712
12760320
12759296
12755712
12823552
12804608
12717568
12632832
12569088
12520448
12468992
12441600
12417280
12401920
12414464
12482304
12525312
12583680
12621056
12620544
12633088
12689664
12706816
12677632
12675328
12626432
12565504
12480256
12446976
12392704
12367872
12435456
12456192
12472064
12540672
12626944
12673536
12705536
12725248
12747008
12712960
12642304
12596224
12548864
12492288
12413952
12366592
12353280
12388864
12460032
12479488
12521216
12647168
12760832
12760832
12707840
12690688
12692992
12674048
12604672
12532480
12456192
12403200
12416000
12407552
12399872
12439296
12467712
12514560
12593152
12656896
12714752
12745472
12702720
12709632
12785152
12823296
12839680
12947968
13096192
13280768
13493248
13711872
13982976
14251264
14494208
14726400
14981888
15230208
15414016
15523584
15621376
15642112
15575296
15456000
15288576
15040256
14761728
14504704
14272256
14029312
13707264
13297920
12900352
12607744
12399360
12249600
12136704
12107008
12130048
12159488
12172288
12125696
12097024
12094464
12110336
12215296
12361728
12462848
12551936
12657920
12763904
12868608
12932608
12974080
12955136
12901376
12817664
12734208
12649472
12609024
12618496
12621056
12640256
12713984
12779264
12804096
12863488
12929024
12957184
12964864
12955392
12937472
12925184
12846080
12769280
12746752
12731904
12727552
12724992
12739072
12783616
12846336
12895744
12946432
13023232
13067520
13056256
13047552
13004032
12962048
12916224
12855040
12806400
12787456
12780032
12818944
12831232
12821248
12868096
12904448
12951296
13065728
13146368
13153024
13150464
13164032
13135360
13088768
13088768
13015040
12958976
12924672
12865024
12834048
12859136
12942592
13017600
13081600
13164288
13273600
13352960
13367808
13340672
13305088
13256192
13206784
13150464
13076736
13020928
13013760
13037824
13086208
13135104
13225216
13344000
13396224
13398784
13451264
13492992
13465344
13414400
13354752
13271040
13238016
13224960
13168128
13120000
13140992
13237760
13315840
13348864
13378304
13473024
13587968
13658368
13672192
13680384
13706496
13707008
13650688
13569280
13499392
13476096
13446656
13446144
13467648
13494272
13524224
13545984
13627392
13702400
13766912
13787136
13764096
13704704
13654528
13623296
13618944
13632768
13638656
13622528
13628416
13629952
13615360
13629440
13670400
13729024
13799424
13865216
13896448
13831680
13746688
13701888
13695744
13667072
13539840
13462272
13452544
13447680
13466112
13516544
13521408
13539840
13597184
13625088
13660672
13706752
13716224
13649664
13518080
13367040
13278976
13197056
13143040
13133312
13143040
13148160
13169152
13161728
13158144
13184768
13246208
13280000
13297920
13287680
13244160
13200640
13155072
13063424
12970496
12900096
12893952
12919808
12965376
13005056
13037312
13064960
13063680
13066752
13071360
13117696
13135360
13089280
13013760
12912640
12836096
12792832
12765696
12743936
12749824
12771328
12819456
12878080
12887040
12898048
12927744
12979200
13022208
13034496
12969472
12954112
12929536
12817408
12689664
12633600
12631040
12616960
12630016
12684800
12775680
12870400
12916736
12918784
12929792
12945664
12977408
13014784
12997120
12969984
12915712
12828160
12705024
12670976
12702720
12711936
12706560
12741632
12823040
12920064
12994048
13032448
13016064
13015040
12988672
12941824
12870144
12833280
12786432
12738048
12716544
12686336
12684800
12733696
12820480
12880128
12930304
12995328
13033984
13061376
13099264
13092352
12993280
12888320
12828160
12789248
12742400
12663040
12661760
12734720
12835328
12862976
12858880
12917504
12990720
13030144
13069824
13074688
13065728
13018880
12920320
12811264
12758016
12737024
12731648
12697600
12680960
12692736
12730112
12842752
12982784
13050624
13086464
13142016
13134848
13068032
13016064
12953600
12871424
12834560
12775168
12717056
12706560
12721152
12780800
12862720
12919552
12965888
13004544
13037312
13090304
13166336
13167360
13075200
12985856
12908032
12818944
12725504
12678912
12692480
12736000
12809728
12875520
12930048
12981504
13049600
13098496
13107712
13110784
13093888
13047808
12982272
12904960
12811776
12761088
12781824
12805632
12837888
12860416
12864512
12877568
12897280
12966656
13070080
13113344
13106688
13057536
13009408
12979456
12930304
12841216
12765184
12713728
12657920
12646912
12673024
12738560
12874240
13003008
13103872
13187840
13243392
13222656
13128704
13047296
12951296
12850688
12809472
12762880
12684800
12664576
12706560
12785152
12843776
12858112
12870656
12940800
12988672
13036032
13066752
13032960
13005312
12984064
12964096
12916736
12830720
12772864
12745216
12755712
12798208
12867328
12939520
12984064
13016320
13021696
13065472
13093376
13087232
13045760
12987648
12958208
12941312
12863232
12819456
12808448
12791552
12844288
12935424
12985344
13067008
13160704
13209600
13233408
13209088
13203200
13235456
13207552
13105920
12987648
12879616
12823552
12851712
12911360
12967680
13007616
13088256
13169152
13204480
13254400
13335296
13338880
13261824
13180928
13116672
13020928
12928768
12844800
12785152
12767488
12768256
12800256
12868352
12954112
13052416
13120512
13168896
13186304
13203456
13198080
13154304
13047040
12957696
12908800
12845056
12822528
12840192
12872448
12887808
12890880
12902912
12935936
12984320
13034496
13051136
13099264
13152768
13115392
13044992
12950528
12887296
12883200
12841472
12816128
12795648
12802816
12836352
12894464
12951552
12996864
13047808
13094912
13101824
13121280
13111552
13071616
13005312
12939008
12861184
12800512
12787968
12807936
12824320
12875264
12943360
12963072
12964864
13011968
13070336
13067264
13041920
13021696
13029632
13031424
12952064
12807680
12723200
12800512
12954880
13116928
13314816
13477888
13676544
13910528
14161920
14430720
14616064
14748160
14902272
15080448
15225856
15329024
15432448
15536640
15633408
15708160
15742208
15753984
15664384
15495936
15305472
15171072
14992640
14757888
14423040
13996032
13598464
13261824
12948224
12670976
12457472
12353280
12392960
12494336
12638208
12783360
12910592
13062400
13217024
13317120
13395456
13408512
13348608
13279232
13231616
13176320
13129472
13080064
13035776
13050880
13106944
13099776
13063680
13109760
13214976
13313024
13374976
13393152
13386240
13347072
13277952
13241344
13230848
13167616
13059584
13035008
13083904
13138176
13180928
13189376
13242368
13298432
13359872
13369600
13388800
13420288
13389312
13358848
13309440
13238272
13193728
13164032
13162496
13168128
13179904
13224960
13262336
13321984
13366272
13405184
13452032
13498112
13543680
13548544
13526272
13463040
13411072
13348096
13269504
13244160
13239808
13220096
13236736
13305088
13390848
13475072
13583104
13686016
13700864
13642752
13629440
13615360
13603840
13599232
13532928
13422080
13346048
13330688
13371136
13448960
13514240
13586944
13617920
13639936
13730560
13790976
13806848
13864192
13886464
13806336
13712640
13641216
13599744
13577984
13593344
13613824
13645056
13710592
13777920
13869056
13931008
13957376
13985536
13979136
13950976
13931776
13908224
13862400
13827072
13806080
13775872
13783040
13807872
13858816
13929984
13968384
13995008
14017024
14112256
14198272
14209024
14163456
14110720
14122240
14117888
14043904
13964032
13898496
13900288
13947136
13992448
14046976
14078720
14091008
14157312
14255104
14309376
14304768
14252032
14208768
14139904
14070784
13977600
13894400
13887232
13931264
13934592
13944320
14000384
14063872
14106112
14124288
14159616
14186496
14168320
14129920
14085888
14009856
13926144
13842688
13793536
13745152
13705472
13646080
13633792
13647104
13659136
13696512
13718272
13730560
13740288
13722368
13735168
13676288
13581568
13536768
13519872
13460992
13367808
13302272
13288192
13307136
13312256
13371136
13464832
13518336
13545472
13576704
13600256
13566464
13489920
13419264
13324800
13257984
13239296
13190912
13156096
13129728
13120768
13150720
13222144
13307136
13375744
13420288
13462528
13488640
13493760
13457664
13407232
13366016
13291264
13224192
13173504
13117184
13093120
13132032
13199872
13225728
13250304
13326336
13400064
13448192
13467392
13483008
13436672
13373440
13353216
13318656
13259776
13170432
13087488
13078528
13084928
13124096
13182464
13229824
13311488
13421056
13513728
13521664
13501696
13458688
13409280
13374464
13326336
13262336
13190400
13137152
13096448
13094144
13145600
13224704
13292544
13342720
13438720
13528320
13539840
13500928
13430784
13361152
13306368
13297408
13258240
13212416
13172992
13154560
13170176
13214976
13282816
13312768
13369344
13434368
13465600
13499136
13499392
13465856
13440256
13384960
13300224
13221120
13175552
13166848
13148672
13130752
13157632
13218816
13319168
13419776
13434880
13418240
13430016
13456384
13475584
13483264
13400576
13292032
13214976
13137408
13097728
13133056
13192960
13240576
13260544
13259264
13294592
13364992
13471232
13578496
13611776
13612288
13581568
13447680
13300224
13208832
13162240
13152768
13178112
13172992
13195008
13261568
13324032
13391616
13435904
13408256
13453824
13552384
13564672
13498112
13437696
13385728
13289216
13199872
13148928
13136896
13150208
13194752
13243136
13285376
13354496
13421568
13471744
13478912
13478656
13477120
13464320
13453312
13414656
13344000
13289984
13247232
13229312
13241088
13264640
13275648
13304576
13286912
13345280
13474048
13543680
13568256
13573376
13520640
13425152
13364480
13307648
13256448
13206528
13171968
13188864
13229312
13282304
13344768
13382656
13406720
13481216
13546752
13522176
13484544
13468672
13440768
13407488
13327616
13213952
13125376
13095680
13081600
13137152
13221376
13301248
13376768
13442304
13538304
13632000
13670656
13636864
13574144
13506560
13443072
13349376
13222400
13164288
13181184
13215744
13228544
13248256
13320192
13407232
13518080
13616384
13660928
13687040
13680640
13651712
13606144
13562368
13541376
13503232
13446912
13403904
13383168
13383936
13467392
13549056
13603840
13661952
13729280
13779200
13793024
13813248
13795072
13704448
13595648
13534720
13476608
13382144
13369856
13413888
13451776
13466880
13450240
13473280
13552640
13641984
13707264
13712384
13671680
13626368
13608448
13576704
13427968
13242368
13165824
13163776
13193984
13254912
13351936
13405184
13458688
13515520
13550592
13603072
13678592
13708544
13675264
13627392
13573632
13504000
13420032
13360128
13319936
13298432
13299968
13348352
13439488
13482752
13519104
13576704
13643008
13687808
13684736
13650176
13609984
13544192
13454592
13393664
13324544
13256448
13258496
13293312
13335040
13382912
13422592
13479424
13558272
13596160
13594112
13596160
13613568
13585664
13504000
13441792
13401856
13382912
13374976
13367808
13390336
13404928
13432320
13508608
13603072
13758464
13987328
14194944
14328320
14490624
14609920
14737664
14895360
15006208
15104000
15288064
15490560
15653888
15867136
16092672
16239104
16402688
16538880
16608256
16547328
16373504
16078336
15724032
15411968
15098880
14717184
14274816
13885696
13563904
13289472
13120768
13067264
13131264
13260032
13391104
13481472
13526784
13556992
13574912
13619200
13612288
13577984
13567488
13532416
13485312
13465600
13473536
13533184
13611008
13641728
13698560
13797888
13848576
13887488
13881344
13819392
13767936
13732608
13672960
13565696
13472512
13484544
13530112
13545728
13560576
13626368
13678592
13725696
13781248
13839104
13884416
13907200
13910272
13849088
13743104
13657856
13628672
13612544
13595648
13638400
13698560
13714688
13702400
13735168
13789440
13867008
13980672
14103040
14140416
14093056
14011136
13900800
13830912
13792768
13721856
13677824
13684480
13690112
13688320
13757696
13866496
13944832
14020608
14104320
14142720
14166272
14158592
14096384
14006528
13943296
13909248
13841920
13794048
13830400
13881856
13908224
13966592
14038784
14132736
14208000
14266112
14281728
14280960
14297856
14282752
14227968
14152448
14068736
14033408
14022400
14017536
14069760
14110464
14145280
14194176
14286592
14378496
14443776
14434048
14407424
14425344
14436864
14394112
14348544
14286848
14191872
14152704
14174208
14220288
14294784
14391552
14481152
14546944
14600960
14693888
14758144
14731520
14696448
14686208
14651136
14586624
14512896
14428416
14382336
14398976
14419200
14447872
14499584
14524672
14575104
14646528
14733056
14818560
14850816
14830848
14784000
14713088
14662400
14595840
14539776
14522368
14483712
14452992
14481664
14534656
14603520
14645504
14660096
14696960
14715392
14738176
14734336
14688768
14643456
14584320
14505984
14438912
14383104
14334976
14301440
14307072
14349824
14375936
14411520
14436352
14468096
14510080
14552576
14580992
14523136
14383360
14234880
14133248
14070784
13981696
13944832
13936896
13930496
13962240
14012928
14048768
14088448
14126336
14153216
14149376
14107392
14064640
14024448
14000128
13995008
13939712
13878784
13852160
13824768
13789952
13833984
13873408
13906688
13923840
13967872
14037248
14064128
14062080
14116608
14123520
14076928
14010368
13885952
13791744
13809152
13826560
13840896
13865728
13936384
14039040
14127872
14175232
14215680
14233344
14248960
14223360
14164480
14129664
14129152
14080000
13978624
13878784
13817088
13789696
13809920
13915136
13975808
13857280
13714432
13688064
13767168
13901824
13995008
14062080
14098176
14061568
14005760
13869056
13665024
13596416
13657344
13700352
13805312
14018304
14075392
13971968
13886720
13843968
13657088
13489664
13415936
13370880
13421824
13510144
13588736
13672960
13677568
13641472
13720064
13880320
14009088
14091008
14207744
14328576
14362624
14375680
14399232
14413056
14353920
14291456
14241792
14117888
14096128
14161152
14244352
14165248
14147328
14293504
14359808
14287104
14379008
14337280
13892608
13649664
13842432
13937920
13694976
13382912
13230080
13234688
13334272
13496576
13636096
13697280
13600512
13390848
13382912
13575680
13675776
13746176
13745408
13825280
13959424
14072064
14253056
14366720
14500352
14584576
14466816
14252032
14002176
13818368
13755904
13795584
13850112
13837312
13893120
13935616
13951488
13899264
13747456
13705216
13804544
13956096
13937152
13782528
13594368
13615360
13742336
13896704
14016512
14020352
13981696
13982208
13987328
13923072
13891840
13930752
13891072
13769472
13701376
13827584
13882880
13793024
13733888
13838336
13976320
13886208
13832448
13942016
14061312
13954304
13778688
13747712
13801216
13861376
13816064
13761024
13771264
13873920
14026240
14091008
14164480
14311680
14463488
14431744
14238976
14048512
14014208
14065920
14027776
13876480
13782272
13860608
13929472
13890560
13961216
14187520
14245632
14182912
14192384
14331648
14534912
14486528
14350592
14398720
14414336
14452736
14458112
14394624
14305792
14255616
14249472
14302208
14240000
14094080
14125568
14333184
14552064
14771456
14891520
14891776
14822400
14610688
14168320
13831936
13637376
13507840
13469696
13484544
13564416
13724672
13896704
14028800
14048000
14144768
14338560
14465536
14570752
14589440
14403328
14187264
14089728
13909760
13708544
13591808
13526784
13564928
13571328
13596416
13891072
14035456
14052352
14200576
14451200
14666496
14735616
14637312
14443776
14267136
14238720
14290432
14426368
14622464
14716672
14781952
14839040
14764544
14574080
14447360
14472960
14536704
14602240
14611968
14522368
14495488
14622208
14787840
14643968
14399232
14218496
14141952
14343936
14553088
14465536
14433280
14582784
14702592
14792704
14792704
14752512
14743552
14501120
14171648
14104064
14148096
14024960
13795840
13665536
13719040
13901312
14147584
14358272
14498560
14425088
14282240
14437632
14543360
14440192
14426880
14517248
14510592
14424064
14402304
14410496
14202624
13918464
13829888
13979136
14218240
14360832
14508544
14665984
14718464
14783744
14852352
14805760
14629888
14484224
14503168
14702080
14932992
14824192
14609664
14646272
14760960
14972160
15048192
14980352
14881280
14714368
14785024
15067136
15385344
15688704
15895808
15984896
16151040
16461824
16653824
16749312
79360
309248
470784
366848
204544
86528
16697088
16610816
16555776
16287744
15969536
15684096
14942976
14106112
13782528
13766656
13991168
14598144
15022336
14913536
14669056
14384640
14277632
14249984
13901312
13451264
13260288
13264896
13376000
13587712
13733632
13709568
13677056
13861376
14103040
14130944
14042624
13998080
14110208
14216448
14240768
14501888
14782208
14751232
14361856
13679872
13099520
12914944
12938752
13182464
13561344
13788160
13779712
13778176
13902592
14084864
14375936
14403072
14346240
14291456
14282752
14259968
14140928
14116864
14170880
14311680
14495744
14279168
14087680
13973504
13959424
14045184
14177024
14223360
13958912
13948928
14384640
14637312
14510592
14227200
14102784
14127360
14303744
14587904
14719744
14675968
14711040
14824192
14801664
14711296
14657280
14824448
14765056
14362368
14297344
14552320
14459904
14230528
14268416
14307328
14464000
14759936
14860544
14526976
14128640
14101504
14316800
14440704
14586112
14859008
15202560
15394816
15373824
15458048
15517696
15153920
14868224
14521856
14146304
14030592
14202368
14373888
14417408
14685184
14935040
15015936
15027968
14991616
15085824
15294464
15333632
15282432
15511296
16058368
16260096
15822592
15255552
15024128
14852608
14601216
14537728
14832128
15075840
15232000
15327488
15232256
15130368
15097856
15158784
15266048
15475968
15371520
15223040
15181568
15166208
15285248
15553024
15698176
15803904
15784448
15635712
15454208
15428864
15439872
15287296
15236352
15451136
15647232
15671808
15598592
15627264
15693824
15680000
15565056
15576832
15864576
15995392
15821568
15836672
15794176
15456512
15418624
15727616
16070144
16177920
15965696
15266048
14662400
14681856
14872576
15028992
14970880
14789120
14938368
15216640
15377408
15542272
15567872
15532800
15381504
15077376
14779904
14585088
14420480
14468864
14553600
14459904
14424320
14495744
14762240
15030272
14915840
14655488
14386176
14353664
14616064
14776576
14799872
14830848
14652416
14437632
14481408
14614016
14646528
14581504
14599168
14590464
14653696
14736128
14554368
14514944
14909952
15176704
15267328
15131648
15080448
15200768
15158272
14899968
14658048
14595072
14790912
15037696
15185152
15264768
15310592
15213056
15075584
15000320
14847744
14705920
14694912
14692096
14654464
14633472
14637568
14689536
14707200
14656512
14610432
14585600
14594560
14652928
14704128
14878720
15042816
15091456
15081728
14973184
14925824
14923264
14833664
14801152
14784512
14737408
14751744
14592512
14246144
14275328
14490368
14533888
14636288
14780928
14774784
14769408
14818048
14836224
14927104
15125760
15255552
15297536
15368704
15077376
14456064
14278400
14462208
14604032
14851328
15132672
15308544
15324160
15250432
15186688
15102464
15019776
14953472
14855168
14703616
14627328
14652416
14679552
14706432
14813696
14894080
14807040
14743552
14842368
14862080
14742016
14546944
14343936
14234368
14275328
14313216
14335232
14335232
14424832
14645248
14780416
14778112
14722048
14541824
14288640
14156800
14127104
14187776
14462976
14755840
15002624
15137024
15143168
14984704
14840832
14801664
14640384
14380544
14236928
14090240
14064896
14177280
14270208
14513664
14686208
14737920
14711552
14846720
14901248
14735872
14671104
14686976
14595584
14537728
14469376
14472704
14539520
14555904
14619392
14721024
14782464
14742784
14599424
14440448
14239232
14201600
14377984
14510592
14477312
14385664
14230784
14077952
14081792
14413056
14698240
14897920
15104512
15066368
14885632
14643968
14441216
14405632
14446080
14435072
14333184
14313216
14345984
14242048
14208000
14322944
14568704
14817536
14736384
14357504
13995776
13980672
14139904
14400256
14607616
14502400
14283520
14256128
14314496
14305280
14352384
14496768
14493440
14411520
14480384
14609664
14644992
14665216
14690048
14844672
14926336
14871552
14943232
14834176
14599424
14623488
14754304
14779648
14865920
15063552
15105536
14806528
14438912
14370816
14625536
14755840
14530304
14162432
14164992
14432256
14700800
14823680
14661120
14391296
14189568
14293248
14441472
14509568
14610944
14718464
14768640
14878976
15068416
15080704
15000320
14724352
14406912
14439936
14568192
14421504
14209024
14241024
14511616
14578432
14465792
14353408
14317824
14423808
14522624
14627328
14731264
14675968
14482432
14328064
14186752
14095360
14202112
14346496
14410752
14457856
14569472
14719744
14776576
14676480
14621952
14596352
14463232
14288128
14070784
13982208
14096896
14276608
14396160
14236416
13963520
14064128
14333696
14313216
14205696
14276096
14366720
14388736
14384896
14408704
14508032
14504960
14249472
14114304
14215424
14253824
14292480
14496256
14706944
14849792
14951168
15050752
15226880
15287296
15122944
14868992
14482432
14124800
13945344
13783296
13724416
13815808
13919232
13979136
14063104
14251776
14404352
14519808
14625536
14729472
14650624
14478592
14446080
14437376
14398976
14379776
14376960
14470912
14744576
15020288
15340032
15713024
15912960
15957504
16173568
16623360
314880
570112
575488
441088
428544
561664
638208
527360
289792
82944
16739328
16616448
16379648
16204288
15940352
15375872
14867712
14608128
14192384
13611776
13256704
13253888
13448448
13565184
13665792
13814272
13909504
14080768
14245120
14337792
14526720
14830592
15078912
15068160
14916352
14806016
14835712
14750464
14485248
14394368
14350848
14161920
13990656
14043136
14246400
14438912
14565888
14613248
14595072
14621952
14718208
14713088
14626048
14577408
14550272
14396160
14330880
14320128
14300416
14271232
14076416
13982208
14095360
14135552
13997568
13927680
14193408
14599680
14764288
14743040
14648576
14464000
14176512
13894144
13643264
13133568
12434944
11832064
11303424
10876160
10715648
10762496
10730752
10622464
10653184
10750464
10963712
11310848
11564800
11788544
12156672
12381952
12430080
12337664
12301056
12562944
12926976
13108480
13171200
13163776
13125632
13170176
13271552
13379072
13449984
13334016
13140480
13079552
13029376
12919296
12951552
13229824
13399040
13346304
13351168
13359104
13421568
13643776
13663744
13445888
13479936
13570560
13469696
13394944
13254912
13107712
13194496
13385984
13554944
13626624
13460736
13395712
13638656
13958144
14150912
14210816
14349056
14737152
15022592
14769664
14312960
14154496
14236672
14139392
13833472
13446144
13246208
13328640
13669120
13998848
14126336
14299648
14503424
14505216
14545920
14515456
14384128
14399488
14425088
14274816
13937152
13671424
13442816
13151744
13148416
13519104
14022912
14490880
14862592
14948096
14720000
14565888
14578432
14616064
14561024
14522368
14403072
13989888
13586432
13439232
13401088
13574656
13927168
14122496
14061056
13951744
14051584
14325760
14447872
14334976
14201856
14179328
14234624
14131456
13940736
13679104
13570304
13606912
13713920
13829632
13766144
13755136
13907200
14096640
14228480
14270976
14193152
14104064
13912320
13805056
13879040
13964544
13997056
14030080
14150400
14222848
13959424
13509120
13432320
13526272
13490432
13586688
13888512
14128640
14117888
13930496
13871360
13847296
13842176
14021632
14016256
13621504
13358592
13289216
13121536
12989440
13153280
13414656
13478144
13391872
13211392
12997376
12794112
12719360
12744704
12739584
12798720
12906496
13077760
13330176
13410304
13368576
13422848
13450752
13492736
13558272
13543168
13400576
13236736
13102080
13051392
13121024
13137664
13031936
13064192
13307904
13540096
13739776
13931008
14009600
13858304
13668096
13572864
13475328
13363712
13207040
13111808
13292544
13730048
14183168
14305024
14099200
13877760
14019072
14298880
14171904
13989888
14155776
14418688
14380800
14091264
13941760
13900544
13680896
13371136
13352960
13633024
13617152
13351424
13152768
13185024
13458688
13915136
14277888
14533632
14652416
14714624
14641920
14430720
14396160
14549760
14498560
14254592
14253824
14306304
14205184
14197760
14346496
14370816
14319872
14321920
14397952
14562816
14724096
14860288
15042560
15159552
15005440
14797824
14633984
14569216
14673152
14801664
14990592
15155456
15338240
15531264
15581184
15494912
15554304
15797760
15892736
15979264
16185088
16281856
16360448
16136704
15836416
15770368
15668992
15551744
15361536
15255552
15259904
15172864
15117824
15026176
15016704
15246592
15440640
15409664
15274496
15237376
15309056
15238656
15054848
15131136
15391232
15458304
15510784
15595264
15520512
15366400
15341824
15411200
15376384
15301376
15329536
15459328
15588352
15630592
15580416
15354880
15089920
14930432
14848512
14818560
14964480
15154688
15242496
15227392
15360512
15640320
15753216
15703552
15609088
15572736
15508992
15349760
15122944
15116032
15222784
15360768
15451648
15381760
15189504
15130112
15261952
15410432
15729920
15943936
15604992
15247616
15238656
15198720
15196672
15231744
15200000
15231744
15157248
14976512
14920448
15201792
15608576
15747072
15713280
15723264
15773440
15750656
15605248
15339520
15260672
15351040
15427840
15328768
15313408
15447552
15444480
15513600
15724288
15965696
15975424
15796480
15653120
15501312
15278336
15258112
15136768
15065856
15142912
15174400
15118592
15155200
15297280
15313152
15314432
15302400
15294208
15282688
15367168
15666432
15798528
15803904
15758336
15548672
15355136
15417088
15600384
15629824
15358720
15083008
15029760
15192320
15235072
15142144
15068416
15168256
15227392
15260160
15484672
15696896
15682816
15647232
15623936
15513344
15352320
15223552
15120640
15126784
15162880
15228416
15410944
15453696
15460352
15643136
15720192
15681280
15612416
15566336
15480320
15393280
15407360
15410432
15345920
15302656
15288832
15325696
15511040
15545344
15359488
15287552
15556864
15870208
16025856
16050176
15948544
15713536
15586560
15494400
15305984
15170560
15126272
15064320
14967552
15056384
15186432
15339008
15698688
16177408
16515072
16663552
155648
531456
694784
651520
666368
755200
866816
941824
1025024
1317632
1685248
1788672
1657856
1452288
1283840
1242368
1210624
984320
551168
16750592
16098304
15340288
14771968
14605312
14586112
14419968
14295552
14373376
14441216
14515456
14726400
15064064
15344384
15440640
15449856
15479040
15650304
15801088
15654144
15455232
15379712
15258368
15188224
15339008
15385088
15372288
15455232
15632384
15741184
15665408
15559680
15569152
15639040
15543040
15254784
15136000
15213312
15382528
15448064
15400704
15364096
15288576
15311360
15437568
15497216
15531520
15573504
15520768
15371008
15270400
15229696
15246592
15285760
15160320
14972160
14960640
15154432
15390464
15526144
15654400
15826176
15984384
16042240
15878912
15486720
15215104
15170816
15148032
15105024
15060224
15014656
15012864
15149312
15321088
15384576
15384320
15446016
15448320
15453952
15597568
15695360
15782912
15911424
15914240
15657984
15413504
15376640
15376640
15481344
15598080
15542016
15512832
15680512
15815936
15906816
16018688
16166656
16128512
16017920
16067328
16023808
15815936
15607808
15474432
15318016
15331328
15599360
15717376
15714560
15813376
16041216
16177664
16122112
16065024
16031488
15851008
15735296
15591936
15447040
15501312
15580928
15516672
15407104
15387648
15494912
15610624
15668992
15701504
15695872
15647744
15725824
15854080
15941632
15980800
16113408
16333056
16250112
15836672
15478784
15316992
15311360
15366912
15492096
15580416
15640832
15760640
15854336
15901184
16018688
16229120
16372480
16368384
16286208
16161792
16145664
16196096
16179712
16065792
15921152
15890176
16046848
16227072
16343552
16374784
16283904
16371712
16629760
16679680
16492544
16233216
16140032
16264960
16331008
16186624
16029184
16009984
16026112
15930880
15922432
16051968
16239872
16283904
16223488
16174848
16072704
15912448
15731200
15514624
15423744
15420416
15421184
15437312
15422208
15428864
15450880